0,1,2,3,4,5,6,7
-1,-1,0,-1,-4,-1,-3,0
-2,-1,-2,-2,0,-2,-1,-2
-2,-1,1,3,0,0,0,0
0,-2,0,1,1,-3,-3,-1
0,-3,-3,-4,-1,-3,-1,-2
-2,-1,-1,-3,-2,0,-3,-2
-3,0,-3,-1,0,-1,1,-2
-2,-1,-2,-1,-1,0,-1,-2
0,-1,0,-1,-2,-1,-2,-1
-1,-4,1,-2,-1,0,0,0
1,-1,-3,-4,-1,-2,-2,-1
-2,-2,0,0,-2,-1,-1,-2
-1,1,0,1,0,1,0,-1
1,-1,-1,0,0,0,0,0
-2,-1,-1,-1,-1,-1,-1,0
0,-3,-3,-3,-4,-1,-2,0
-2,1,0,2,0,-1,-3,-2
-3,-1,-1,0,1,-1,-1,-2
0,0,-2,-3,-4,-1,-2,-3
0,0,0,0,-1,-2,-3,-1
0,-1,-1,0,0,-1,0,0
0,1,0,0,-1,-1,-2,0
-1,-1,-1,-1,-1,-3,-4,-3
-1,-2,-2,-2,-1,-2,-1,0
-2,-1,-2,0,-2,1,-2,0
-2,-1,-1,-1,1,-2,0,-1
-1,-1,-2,0,-1,1,-2,1
-1,0,-1,-2,-2,0,-1,-1
0,-1,-2,-2,-2,-3,-1,-2
-1,-1,-2,0,0,-1,-2,-2
0,-2,-1,-1,-1,-1,1,-1
-1,-2,-2,-1,-1,-1,-1,0
0,-1,0,-2,-1,-1,0,0
0,-2,-1,1,-2,-2,0,0
-2,-1,1,1,-1,-1,0,0
0,1,-1,1,0,0,-1,0
-1,-1,0,-2,-1,-2,-1,-1
-3,-1,-1,-3,-3,-2,-2,-1
-1,-2,-1,1,0,-2,-2,-2
-2,-1,0,0,-1,-1,-1,0
-2,-2,-1,1,-3,-2,-2,-2
0,-1,-3,-2,0,-1,-1,-2
-2,-2,1,-1,-1,1,-1,0
-3,-2,0,0,2,-2,0,-2
0,0,1,2,2,0,0,-1
-1,-1,-2,-3,-1,1,-2,-1
-2,-1,-3,-1,-4,0,-1,0
-1,1,-1,-1,0,0,0,-2
-1,0,-1,1,0,-1,-1,0
-2,-1,0,0,-1,-1,0,-2
0,-3,-3,-3,-1,-3,-2,-1
0,-2,-2,-2,-2,-1,-1,-1
-1,-1,0,-3,0,-1,0,-1
-1,-1,-1,-1,-2,0,0,-1
-1,-1,-3,0,-1,-2,1,-1
-3,-2,-2,-6,-3,-1,-1,0
-1,-2,-2,0,1,-1,-1,-2
-1,-1,-1,1,1,0,-1,-1
-1,0,-2,-4,-2,-2,-2,-2
0,-2,-1,-1,0,-2,-1,-1
-2,-1,0,-1,-1,-1,-1,-1
-1,-2,-2,-1,0,-2,-1,1
-2,-1,1,1,2,1,-1,0
-1,-2,-2,-2,-3,-4,0,-1
-1,-1,-3,-5,-2,-1,-1,-1
-1,0,0,0,-1,-1,-2,-2
-1,-1,1,1,1,0,-1,-1
-1,-1,1,3,1,-1,1,1
-1,0,-3,-3,-3,-1,-3,-1
-3,-2,-3,-3,-4,-2,-2,0
-2,0,-1,-1,-2,1,-1,-1
0,-1,0,-2,-2,1,-1,-1
0,-2,0,0,-1,-1,0,-1
-2,-2,-1,-1,0,-1,-2,-1
-1,-1,2,2,0,0,-2,-2
0,-1,0,0,1,1,1,1
-2,-3,-4,-6,-5,-4,-2,-1
-3,-2,-3,-7,-3,-2,-2,-1
0,-2,1,-1,-1,1,-2,0
1,0,-1,3,1,0,-1,-3
-1,-1,0,2,1,0,-1,0
-1,-1,1,0,0,0,1,0
-1,-2,-4,-2,-1,-3,0,-1
-1,-2,-1,-5,-5,-4,-2,-2
-1,-2,-1,-3,-3,-3,-2,0
-1,0,0,0,-2,-1,0,-2
-1,0,-3,-3,-1,-3,-1,0
-1,-1,-1,0,0,1,-1,0
-2,0,0,1,2,1,-1,-1
0,-1,0,-2,-3,0,-1,-1
-1,-1,0,-2,-3,-3,-2,-1
-3,-1,-2,-3,0,-2,-2,-1
-1,-1,0,-1,1,-1,0,-4
1,0,-2,0,-1,0,-1,0
-1,-2,-1,0,0,2,-1,-1
0,-1,-1,-3,-6,-2,0,-1
-1,0,1,0,-1,-2,-3,-1
-1,-2,-1,-1,1,-2,0,-1
0,-1,-2,-1,-3,-3,-2,-1
-1,-1,0,-2,1,-2,-1,0
0,-2,-1,0,0,0,-2,0
-2,-1,-1,1,1,0,-1,-1
0,-1,-1,-2,-2,-1,0,-2
-1,0,0,0,0,-2,0,-2
-1,-2,-3,-3,-5,0,-1,-3
-2,0,0,1,-1,0,-2,0
-2,1,-1,1,0,-1,0,-2
-3,-1,-2,-1,-2,-2,-1,-2
0,-1,-2,1,0,0,-1,-2
-2,-1,0,-1,1,-2,-2,-4
-3,0,-2,-4,-3,-1,-2,-1
-1,-1,-1,0,-1,1,-2,-2
0,0,0,-1,0,0,-1,0
-1,-1,0,0,0,0,1,-2
1,-2,-1,-1,1,0,-2,-1
-1,-1,-3,-4,-2,-2,-2,-1
-2,-2,-1,1,0,-2,-2,-1
-1,-1,-1,-1,-3,1,0,-1
-2,-3,-1,-2,-1,-1,-1,-2
-3,0,0,1,0,-2,-2,-1
1,-2,-2,-1,-1,0,0,-1
-1,0,-3,0,-1,-1,-1,1
-2,-1,-1,-2,-1,0,0,-2
-2,-2,-2,-3,-3,-1,0,-2
-1,-1,-1,-4,-4,-3,-1,-1
0,-1,-1,0,-1,-1,-2,-3
-1,0,0,-3,1,0,-1,0
-1,0,1,1,0,-1,1,-1
-1,-1,-2,-2,-1,0,0,1
-1,-2,-2,-4,-2,-2,0,0
-1,-2,-1,1,-1,-2,0,-1
0,-2,-2,-1,0,1,-1,-1
-1,-1,0,1,-2,-1,-1,-2
-1,-2,-1,-1,0,-2,-2,-1
-3,1,-1,1,-5,-3,-2,-1
-1,-2,-3,-3,-1,-2,-3,-2
0,-1,0,0,2,2,0,-3
1,-1,-2,-1,-1,1,1,1
-2,1,-3,-1,0,-2,0,-1
-1,-1,-2,0,-2,0,-1,-1
-1,0,-2,0,-1,-3,-1,-1
0,0,-1,3,1,0,-1,-2
0,-2,0,1,0,0,0,-2
-2,-4,-3,-6,-3,-2,-1,0
-2,0,-1,-3,-1,-2,-2,-2
-1,0,-1,-2,-1,0,-1,1
0,1,0,0,-1,-1,0,-1
-2,-2,-2,0,-1,1,-2,-2
0,-2,-1,0,-2,-1,-1,0
-1,-2,-2,0,-1,-2,0,-1
-1,-1,-1,-3,-2,-1,-2,0
0,1,1,1,0,-3,-3,0
-1,-3,-4,-2,0,-2,-2,-1
0,-1,-2,-2,0,-2,-2,-1
-3,-3,-1,-1,1,0,-1,0
-1,0,1,1,1,0,1,0
-1,-1,0,0,-2,-1,0,-2
-2,-2,0,-2,-3,-3,-3,-2
-1,-1,-1,-1,-1,-3,-2,0
0,1,-2,-1,-1,-2,0,-2
-3,-2,-3,0,-1,-3,-3,-2
-2,-1,-1,-3,-3,-5,-3,-2
-1,0,-1,-1,1,3,3,-2
0,-1,0,1,1,1,1,-1
-1,0,0,1,2,2,3,2
1,-1,-1,-1,-1,-5,-5,1
-1,-2,-2,0,-1,5,-1,-4
-3,-2,-2,-2,-7,-3,-2,-3
-2,-2,0,-2,1,2,0,-3
-2,-2,-4,-4,-2,-1,-2,-2
-1,0,1,1,0,-4,-2,1
0,0,-1,6,10,5,-4,1
-4,-1,-1,-3,1,-2,-1,-3
-4,-1,0,-4,-16,-7,-2,0
-2,-3,-2,-1,-1,1,-2,-1
4,1,-1,0,1,-3,1,7
1,-2,1,1,1,1,-1,4
-7,-1,3,9,19,7,2,-10
-11,-6,-7,-15,-39,-17,-9,-24
-1,-2,-2,2,3,-4,-3,3
14,4,0,-1,3,-2,5,42
4,0,-3,0,-1,5,5,8
0,2,1,2,14,2,2,-9
-5,-3,-2,-4,-4,-8,-14,-15
-6,-2,-2,-2,-10,6,11,1
1,-3,-1,4,16,6,-3,-12
4,2,-2,-4,-14,-11,-4,16
-3,-1,-2,1,2,-1,1,-13
1,0,1,2,-1,0,-3,-3
-6,-2,0,1,12,7,-3,-12
-6,-3,-3,-12,-30,-29,-14,-14
2,-1,-1,-3,-4,-1,1,4
5,2,2,4,7,1,-2,46
-2,-1,-2,0,-7,-4,0,-15
2,-1,-2,2,4,4,-2,-2
4,1,1,1,6,2,2,-24
-5,-2,-2,-6,-12,-9,-11,8
4,4,1,-7,-4,14,13,10
-12,-3,1,7,20,-6,-6,-1
-6,2,-1,6,23,25,11,-13
12,-10,-7,-13,-32,-13,9,33
0,6,5,0,-5,-8,-12,31
-2,-2,1,-2,1,-8,-6,-36
0,-4,-6,0,4,-6,-7,24
-4,1,0,10,30,3,-8,-32
-1,-9,-9,-13,-8,-4,6,-4
6,0,-1,-3,-4,3,7,39
-18,-7,0,-2,-3,-14,-16,-31
-5,-4,-3,-7,-21,-5,-3,-26
6,5,-1,7,10,0,-12,19
-9,2,5,11,20,9,17,-70
-6,-20,-14,-34,-53,-5,-1,81
-16,5,3,-4,-9,-20,-13,-65
4,-3,-5,3,7,10,3,-17
33,11,4,11,16,29,23,91
-2,5,5,7,21,25,13,-7
-8,-6,2,9,31,-8,-12,-34
-19,2,1,-17,-46,-41,-34,-90
10,1,7,32,56,16,11,51
8,-3,-16,-62,-117,-41,-6,0
0,1,0,18,67,29,15,1
-11,-14,-9,-23,-43,-18,-9,-26
0,2,1,9,12,9,-3,-15
-5,-4,1,7,18,9,-1,-18
19,12,7,3,-6,7,18,86
3,4,5,12,16,0,0,4
-12,-9,-11,-5,13,4,11,-24
-9,-7,-2,-15,-60,-38,-27,-14
5,1,-4,-9,-11,3,-8,3
11,9,16,29,49,14,42,33
-9,-9,-16,-43,-83,-23,-37,-30
-15,-2,10,19,20,13,-12,-38
-8,-4,-3,5,22,-27,-10,-56
5,4,-2,-22,-35,12,-5,104
1,-1,-5,0,-10,-9,20,15
15,2,0,7,47,11,10,-11
-8,-17,-12,0,-18,-7,-10,-8
-16,-4,3,12,21,10,-19,-58
10,6,4,-12,-9,-6,45,33
0,9,8,15,11,6,-22,7
16,17,4,6,15,28,31,33
-18,-20,-22,-1,8,-11,-8,-24
-10,-4,2,-9,-22,7,-32,-18
24,19,10,12,19,-5,6,18
-7,-10,-5,-2,-14,9,6,-19
-21,-7,-8,-32,-65,-30,-72,-26
-1,-9,-3,10,-17,-30,44,-6
16,5,3,-1,9,15,11,87
-23,-5,-4,-12,-14,9,-21,-33
21,15,6,10,10,16,19,33
-4,-8,-7,6,63,-2,-20,-9
-11,-8,-9,-10,-50,-34,-25,-59
27,7,1,-1,6,3,48,64
-45,-32,-9,-5,4,-5,-1,-62
13,10,9,-3,-7,6,-21,22
-1,3,1,14,37,15,15,-34
-5,-9,1,-1,3,-1,-35,0
20,17,5,4,-12,-7,40,23
-6,-15,-13,-6,-3,-1,-16,3
3,11,-3,-14,-41,-14,5,29
-12,-13,1,-7,-8,-2,1,-61
-8,-3,-1,2,6,-6,6,15
10,6,0,5,13,8,-16,-27
-25,3,0,26,118,31,3,-7
2,-8,-14,-44,-115,-39,-61,-22
7,-5,-5,16,69,17,8,14
-17,-1,-4,-21,-58,-20,9,-24
3,1,4,1,-19,-6,22,-27
-23,-9,-4,14,32,6,15,26
19,10,2,-12,-37,-3,-18,-2
2,2,0,0,8,5,14,-13
9,-4,5,5,3,-6,-1,30
5,5,5,0,29,3,-8,38
-14,-7,-8,-5,-22,4,21,25
10,15,7,16,50,41,31,21
-9,-3,-9,0,-12,-6,5,-44
-9,-1,11,12,68,-16,-34,-24
19,4,3,-10,-11,-22,-24,4
-14,-9,-7,-7,20,2,-25,-9
5,-20,1,1,8,6,3,-12
-17,7,-13,0,-18,0,0,-14
9,14,17,9,9,22,-1,15
14,-4,-13,-27,-66,-24,22,11
-22,-9,1,13,50,28,-42,-3
2,-5,-14,-7,-74,-26,45,-39
-9,-26,-5,-3,20,-4,50,39
16,19,12,8,-6,5,-24,26
7,-1,-3,-1,3,-1,-2,20
-6,0,4,1,1,5,-17,-52
14,15,0,8,-6,9,16,9
-26,-13,-1,18,42,-1,-28,-83
23,2,-11,-31,-87,-41,14,51
-5,-2,-6,-3,3,4,-13,22
7,4,0,-10,7,2,0,-44
-2,2,9,14,27,-5,-15,13
-29,-21,-10,-12,-14,2,-20,-25
9,-6,2,-13,-31,-2,2,35
15,36,10,32,74,40,7,7
4,-13,-9,-23,-81,-36,-6,-13
-23,-11,-3,-11,-18,-25,8,-14
17,39,12,9,10,18,-20,21
-6,-9,0,18,67,6,-12,-37
11,21,-1,-29,-68,-14,12,66
16,-8,1,16,12,17,36,17
-37,-20,5,10,72,6,-12,-52
14,9,-3,-12,-59,4,-1,21
5,-13,3,10,28,1,-30,-14
-21,-12,-12,-18,-18,-13,14,-14
6,2,-2,23,66,32,7,10
-1,-3,-3,-21,-68,-53,-14,9
-11,-3,-9,-6,-25,29,31,-14
23,19,9,11,13,-12,-12,68
10,0,6,1,-1,18,37,-13
-4,1,-10,-11,-10,-6,-6,11
-8,0,-3,7,60,29,-16,-48
4,9,-3,-24,-72,-36,1,-30
-7,-4,-12,1,26,3,7,-6
-13,-35,5,6,-1,8,-19,-44
-2,14,1,5,7,-18,18,85
-8,-1,1,3,26,31,-4,-38
26,-16,4,16,16,-8,-11,16
-22,8,-10,-22,-44,-4,2,-31
-14,-15,-5,1,23,-9,0,-22
7,5,8,18,36,12,17,23
-15,1,-3,-16,-18,17,-11,-39
13,-17,-7,12,13,-35,7,52
-12,-9,-4,-15,-49,24,-14,2
13,15,15,-9,-49,-19,-13,-59
-14,-29,-18,1,6,-22,59,72
2,-7,-3,-39,-33,-1,-34,-38
0,16,7,21,44,10,41,55
12,18,8,10,37,27,-15,-23
2,24,15,14,31,-8,-3,-31
-1,-14,-14,-5,-36,2,28,11
8,2,2,-2,-15,-21,-35,-3
-16,-25,1,15,57,26,-12,-48
3,20,-5,-21,-53,-6,30,-17
21,4,6,6,18,-9,32,79
-26,-19,-10,0,11,-1,-39,-68
-8,-4,-15,-11,-15,8,23,1
-10,-20,4,-5,-9,-13,-39,-39
7,35,6,-1,-18,1,1,-33
5,12,11,22,76,34,-14,-11
5,-11,-3,-4,-23,-24,1,30
0,-10,-13,-29,-104,-39,-21,22
-18,-1,11,20,59,19,-22,-29
6,-1,1,-7,-9,-7,-28,-35
-11,-17,-20,-17,-15,-13,-4,45
-5,-18,-4,-12,-16,-3,-20,-11
16,30,2,9,5,16,-1,-4
-18,-2,1,8,26,1,9,-5
8,21,3,6,25,8,13,3
-2,-2,-3,-10,-41,-27,-37,7
5,-1,4,11,1,-9,9,13
-22,-38,-21,-36,-55,-24,-21,-38
2,11,-1,14,51,18,-21,-8
26,19,6,-4,-34,-1,30,33
-33,-22,-7,18,53,-1,-17,-56
4,-10,-3,-1,9,10,40,18
-6,-9,0,-11,-41,-22,-6,62
21,16,1,11,16,12,-12,1
0,-7,-2,1,32,15,20,-2
12,5,4,-3,-38,-34,-2,20
-42,-13,-10,-19,-35,-3,-21,-42
22,18,9,14,42,10,6,37
-23,-17,-12,3,4,24,-11,-15
-9,-13,-12,-42,-88,-66,-3,-9
14,8,8,13,20,6,3,-24
1,14,5,8,38,22,-4,-4
-5,-14,-1,2,-3,-1,7,21
16,14,4,20,29,13,-22,10
-1,-5,-13,-8,-31,7,-2,-21
-23,-11,0,-6,7,-1,-5,-53
18,1,7,7,42,-1,25,108
-7,-10,-2,-5,-23,-2,2,8
5,11,2,6,22,10,-10,-3
7,0,0,10,25,15,7,-2
-16,4,-2,-3,-1,-9,-29,-83
-9,-12,-3,-19,-65,-17,19,14
16,-8,8,16,31,-1,6,71
-20,7,-9,-3,7,-11,9,-27
12,-13,0,-2,5,1,-15,17
6,31,4,20,41,20,29,43
-6,-12,1,-19,-25,-8,25,-46
-7,-30,-10,-2,-19,-9,-31,47
-5,11,2,-19,-53,-19,-29,-33
9,2,5,16,48,32,38,37
17,21,8,5,2,-11,-7,-21
-21,-12,-2,4,15,-1,30,31
-14,-22,-20,-14,-1,-6,-21,-44
11,13,9,0,-1,13,-11,0
14,24,11,11,16,12,-3,17
-13,-11,-8,-8,-13,-16,-6,-35
-4,-17,-3,-16,-11,12,28,58
-10,-7,-12,-3,-26,-39,-29,-59
-8,-10,-10,13,22,-7,20,16
12,-11,1,-21,-18,17,-4,13
-1,22,3,16,14,8,-18,-7
-4,9,-11,-25,-11,-13,19,-19
-9,-3,-6,8,24,25,-15,-6
-11,-18,-4,0,22,-18,-19,5
2,6,1,-7,-40,-28,3,18
8,-5,5,15,41,27,3,18
-17,-5,-7,-5,-35,-20,-18,-49
22,15,7,9,14,19,33,26
-15,-24,-11,-22,-29,-10,-4,13
12,10,4,13,-7,-3,-10,-5
0,0,4,15,45,5,34,8
-6,-6,-10,-28,-54,-10,-35,-51
16,21,6,-11,-39,-3,31,25
-12,-12,4,8,13,-4,-1,-9
2,-1,1,11,38,-2,-16,-4
18,28,4,-19,-92,-10,11,38
-19,-16,-6,13,51,-15,-30,-71
-6,-18,-12,-12,-8,15,-1,28
-12,-4,-3,-12,-28,-7,6,2
5,10,11,15,20,-18,18,-72
-10,-1,-10,-1,2,20,-17,-75
-21,-31,-7,2,-6,-8,-28,-34
0,3,2,-3,33,-5,-21,80
-12,12,0,3,12,14,5,-98
20,-8,-4,-8,-32,-9,39,127
25,13,10,5,21,6,1,30
4,6,3,0,15,28,-5,-68
-18,-9,3,11,21,10,38,33
-3,3,3,-1,-12,-17,-34,-87
-7,0,0,9,31,7,-5,-11
5,-14,-11,-28,-67,-34,17,83
7,2,-3,20,74,57,-12,68
13,19,5,-2,-56,-42,-7,26
-10,-1,3,-2,14,12,-1,-2
-9,-11,-2,15,54,15,-5,-80
15,7,3,-6,-39,-5,5,46
4,0,4,11,28,7,7,68
-12,-6,-7,-14,-5,-26,-35,-91
5,-3,-4,-6,1,32,37,14
5,2,-4,5,-5,-4,-6,-22
-5,-35,-17,-15,-15,-15,-4,13
-3,39,19,15,17,14,-24,-86
20,6,-2,8,-11,-9,40,77
8,3,-5,-16,-13,-7,-8,-23
-16,-3,7,18,23,21,3,-81
11,-2,0,-30,-49,-31,2,51
-21,-11,-7,7,32,5,-21,-74
2,-2,-4,-9,-38,-36,6,91
-25,-7,-2,-4,38,30,-12,-103
28,5,2,9,-21,-9,34,16
-4,10,3,-9,-42,-7,-41,0
2,4,8,14,31,-5,6,59
-4,6,0,-9,13,5,9,-39
-13,-27,-19,5,14,-1,-20,15
10,14,12,-7,-26,-1,27,-16
-21,-7,-7,-7,-34,-23,-23,-51
-11,-13,0,6,32,23,36,-19
40,30,4,-3,26,21,20,55
-18,-26,-5,-14,-61,-25,-22,7
5,8,5,21,81,31,-1,-18
-2,-2,-9,-12,-23,-40,4,38
-2,-13,-6,-15,-49,-20,-11,-12
-11,-5,-8,1,25,11,-44,-77
-4,-7,7,-4,-9,12,48,42
11,3,6,8,17,-6,-28,2
-47,-7,-17,-13,-14,5,-9,-128
44,14,9,12,35,12,14,109
-10,-6,-3,-2,-38,-26,-30,-25
-2,1,-5,-14,-44,-6,-2,-34
4,-8,-1,1,-9,-9,31,27
-21,-8,-1,6,43,22,-9,-57
-11,-35,-16,-35,-67,-32,-52,-39
11,20,-1,11,26,7,51,82
-14,5,14,9,31,13,-20,-72
45,24,3,-6,-31,-17,25,89
-26,-24,-10,5,36,4,6,-82
4,-6,-6,-14,-24,-11,-24,35
-30,-2,4,12,12,25,-24,-82
-15,-11,-8,-12,-12,-9,-14,21
4,8,-6,1,9,15,50,-6
10,-15,-5,-17,-51,-38,-10,38
15,7,6,27,53,31,14,53
-16,-10,-3,-28,-74,-30,-10,-41
0,-11,-7,5,30,12,-25,-10
-16,10,-5,5,20,19,6,-39
4,9,8,9,25,-6,-2,-9
-19,-26,-7,-5,-27,-18,-33,-78
12,35,2,-3,0,10,77,56
22,10,13,21,39,13,3,34
5,16,-6,-6,-35,-10,-11,-34
-16,-28,-8,-11,-14,-29,9,-14
-3,-4,-4,-4,13,1,-45,-53
-5,7,10,11,43,30,-7,-49
-6,-5,-3,-13,-33,-11,-31,-38
-4,-4,-7,4,28,25,27,14
22,7,-1,3,-33,-18,-19,29
-4,-6,-4,-2,12,-10,26,31
15,-8,-5,-18,-26,-17,-43,-12
-15,9,-1,3,3,0,21,-37
5,4,12,16,39,4,20,53
-14,-8,-5,-12,-8,20,-28,-108
14,-18,0,3,-13,-11,44,87
4,24,1,8,35,9,1,45
-2,-5,-7,-8,-6,-9,-38,-37
6,-3,-4,9,-21,-29,-10,18
-20,-29,-5,-27,-30,25,40,-36
-4,10,0,4,1,-19,-44,62
-3,-2,3,3,30,16,-17,-17
-7,-7,1,-1,-31,-15,-17,9
0,-10,-12,-6,-3,-9,9,41
12,6,6,8,24,9,2,-11
-24,12,-3,-8,-44,-15,-38,-79
23,-14,-6,-17,-28,2,38,104
-19,-11,4,18,41,-6,-17,-4
-16,9,-4,-4,0,10,-4,-71
5,-10,1,-11,-27,-18,5,14
31,39,19,19,33,29,-31,-45
2,6,-4,3,8,-10,13,-3
12,-35,-2,-2,0,-11,-1,5
1,36,8,8,18,22,-21,-32
-23,-10,-9,-12,-16,-11,11,-18
-13,-7,-3,-11,16,9,-1,47
22,8,5,11,34,18,-4,-66
-6,-18,-5,-13,-27,-29,15,46
-2,6,1,13,21,10,18,-40
33,17,11,21,19,14,34,84
-27,-25,-15,-34,-62,-29,-31,-55
-14,4,5,21,71,31,3,-61
17,1,-6,8,27,10,22,69
-24,3,-8,-16,-23,-8,-29,-63
27,4,14,18,8,-2,-8,99
12,11,-2,-5,-17,2,3,54
-26,-40,-3,-11,-38,-20,-3,-47
3,36,6,7,6,21,7,-12
13,18,5,12,30,-11,-5,-25
-18,-17,-5,-11,-12,2,-34,-48
-4,-8,0,5,32,8,-4,15
19,-1,1,5,15,15,10,35
-8,28,-2,-1,-5,-1,-8,-82
-33,-55,-21,-43,-92,-55,-6,-29
6,26,13,15,24,18,-9,-19
7,-4,2,20,54,-3,3,5
-11,-4,-12,-25,-51,7,-3,-38
21,17,11,28,61,0,37,1
-15,-24,-15,-21,-29,6,-29,-53
9,-7,-5,-10,-39,-30,-6,62
-18,17,3,-2,2,1,-23,-41
22,7,4,9,17,12,33,107
2,2,-4,-15,-15,-4,-16,-25
5,0,2,1,-27,-21,-1,-42
-21,-21,-12,-7,14,5,2,-1
11,4,6,9,14,9,9,-49
-35,-1,-9,-11,-13,-19,-22,-114
-2,-14,-8,-6,-5,8,-1,-31
66,12,14,1,-20,-1,70,102
-42,-14,-10,5,47,16,-38,-115
46,38,16,2,-36,-13,22,60
-82,-27,-21,-19,-38,-58,-79,-128
33,-1,11,-9,-74,0,38,74
12,-5,-6,4,25,10,23,-7
9,1,-4,-5,-10,-4,9,77
-12,-5,-5,-3,27,18,0,-32
-31,-12,-6,5,12,-5,-21,-21
22,18,5,11,14,16,-14,-21
-31,-20,-12,-23,-66,-51,22,58
13,1,5,10,35,14,-11,-20
-5,8,0,17,67,21,37,-94
0,3,6,-21,-64,8,1,-35
14,-6,-5,1,-3,-7,7,63
16,7,13,9,9,5,2,46
-42,-37,-21,-16,-6,-16,-14,-23
6,17,7,11,21,11,-6,-31
-32,-6,-9,-2,25,7,-32,-128
28,-14,0,5,17,-4,31,71
5,20,0,-6,-19,-19,-16,31
-29,-19,-5,-10,-25,-8,24,-52
22,7,8,-2,16,22,1,34
8,14,0,12,25,26,28,0
-42,-20,-2,-9,-1,-14,-28,-100
76,29,12,13,-11,-10,12,115
-15,5,7,0,-11,-18,-5,-77
23,6,-6,-2,-9,4,26,19
-8,-6,2,3,13,15,0,-50
-24,-29,-18,-23,-47,-20,-33,46
15,30,7,22,47,35,25,17
-8,-9,-2,-3,-2,0,-14,8
-3,-14,-7,0,-8,-14,-30,-94
11,30,10,7,20,13,8,-49
-7,-31,-7,5,24,2,-21,46
7,16,9,0,-2,0,19,9
-22,-10,-11,-9,-7,5,-23,-14
-12,-13,-2,2,10,-17,2,29
-19,1,1,4,4,1,-18,-75
9,8,3,0,-3,-6,11,66
18,-1,0,-19,-55,-7,-22,6
2,1,-7,-7,-29,-25,30,-19
-2,-4,8,21,58,13,-29,-61
-26,-24,-23,-38,-53,-10,-8,6
19,7,16,28,66,32,44,36
-2,2,-7,-8,-5,-10,-3,54
-4,0,8,10,11,11,2,6
-14,-17,-8,-2,-10,-16,-41,-107
5,10,-4,0,12,10,41,66
-28,2,1,-3,2,-14,-9,-64
56,13,8,-13,-61,2,36,98
8,1,0,0,15,0,-6,58
-21,-20,-4,-11,-6,8,4,-30
27,27,9,15,16,-4,20,48
-26,-12,-6,1,13,7,-22,-104
-27,-35,-23,-23,-28,-18,-4,70
15,-6,6,12,13,-2,-10,10
-12,4,-7,-4,-1,3,-6,-11
32,3,-2,1,-3,-4,4,82
-3,11,11,14,14,6,6,-14
-12,-4,-9,-37,-87,-35,-8,-24
-7,-13,-1,2,18,18,-7,-18
14,4,-6,5,32,10,33,34
-5,-11,7,8,-3,-1,-3,-41
-6,18,7,8,17,6,-35,26
-2,-14,-2,-4,-1,-3,-23,-2
1,13,2,1,-18,-5,51,5
1,14,11,8,19,11,-28,-48
-7,-11,-6,8,29,-5,-4,-50
21,-16,-3,-16,-53,-5,-17,2
-18,-1,-3,1,-8,-10,-12,-25
17,27,9,5,-4,3,25,-44
-24,-5,-9,-5,-14,0,18,-6
-7,-21,-1,13,39,28,-11,-8
-5,22,1,-8,-15,-25,-5,-22
-7,6,1,7,29,9,-28,-110
59,12,-6,-23,-96,-29,23,103
-30,-13,-5,-3,21,-2,-6,-89
6,-7,4,1,2,-3,-22,20
-17,-2,-11,-9,-24,9,-2,-32
-7,-1,5,30,70,21,8,-28
13,9,3,3,9,3,16,59
-11,-10,-7,-9,-13,-2,-20,-43
-3,-4,-8,-10,-11,-7,4,3
2,-3,6,12,25,20,9,-51
-28,-28,-18,-11,-14,-44,-12,-30
14,7,5,-2,11,21,-1,38
12,13,5,0,0,-3,-9,-29
-16,2,0,3,-3,4,-9,-70
-9,-20,-16,-14,12,-13,16,58
-7,-11,0,1,-6,1,6,-20
-13,-7,-6,-7,-9,-3,-12,-39
29,32,20,13,31,12,5,52
2,12,6,12,8,-13,-8,7
-29,-20,-18,-44,-95,-39,0,-31
-10,-3,-5,-1,-15,-2,-6,-61
38,-1,-3,4,24,10,31,104
-1,12,8,11,22,7,4,-97
-21,-19,-9,-21,-37,-6,-25,-74
-20,-11,-8,7,31,4,0,-59
9,16,-7,-9,-33,-29,-15,73
16,-4,-3,-6,-15,15,-2,7
5,7,12,31,83,8,41,-13
8,1,7,-28,-93,-26,17,71
-2,-4,-10,-3,14,3,1,65
-6,-3,0,1,-5,6,-7,-51
-27,-19,-5,4,33,6,-28,-1
26,5,4,8,14,12,26,47
6,7,-1,-18,-61,-39,5,-15
-19,-1,-2,-9,-20,1,-25,-52
11,-4,-2,6,10,-3,-1,53
1,-3,4,13,34,14,-1,63
-29,-31,-11,-10,-22,-15,-22,-107
33,41,8,4,12,3,-5,112
-25,-23,-14,2,24,8,-9,-53
19,18,-1,-13,-22,-8,7,56
-16,-13,2,-1,-13,-1,-29,-30
-7,-3,8,3,6,18,8,-84
16,15,1,6,-14,-13,-3,9
21,11,0,9,28,16,2,110
-19,-14,-4,-1,29,12,16,-47
-26,-40,-17,-26,-63,-35,-28,-3
25,28,15,2,-9,13,-4,-25
-10,4,0,15,31,-4,2,-46
1,11,-9,-7,28,0,9,12
-20,-1,-2,-9,-49,-16,-23,-25
8,5,5,-4,1,-3,13,62
14,-15,0,-5,-27,-9,-6,12
-12,3,4,6,13,5,-1,-41
-6,-5,-3,10,44,23,9,-47
19,4,-8,-2,-26,-2,35,7
6,4,10,5,27,-7,0,-12
-28,-20,-11,-6,-11,8,-9,6
-8,2,2,2,13,3,-10,-73
-18,-16,-12,-5,19,10,-40,17
24,15,10,4,-13,-3,31,49
4,-2,3,12,18,-7,-10,-39
-16,-12,-11,-37,-96,-36,15,39
-5,19,6,14,35,25,-14,5
-1,1,-3,7,20,14,5,8
21,28,3,-2,15,-7,-16,-7
-35,-31,-8,2,33,-1,13,-20
17,2,4,-14,-38,-16,14,38
-11,-8,-6,0,-7,4,-14,-95
-12,-13,-4,1,14,13,-46,-27
44,34,13,6,-14,-3,39,70
-24,-12,-6,-10,-16,-12,-10,-74
-2,-3,3,15,32,14,13,-2
-13,-16,-18,3,-1,-2,-18,-100
35,10,4,-3,3,11,25,104
-20,-10,-5,-15,-31,-35,-20,-97
-19,-7,-8,-16,-43,-24,-9,-73
6,5,2,1,29,11,19,26
0,-4,-1,9,31,21,-17,63
11,4,4,1,-26,-11,0,-16
-13,-14,-11,-13,-8,-15,-9,-17
-20,-16,-8,-16,-36,-18,-9,-19
24,19,-6,23,80,34,7,36
-10,-2,9,-4,-3,-5,4,-29
-9,-8,-11,-13,-20,-22,-15,10
-8,-3,-6,-4,-11,13,7,-23
28,23,13,11,14,-17,-13,-8
-18,-16,-18,-4,24,17,-11,-9
-11,13,-4,-13,-39,-10,-49,-79
26,-6,15,1,-33,-14,34,34
-31,-13,-6,1,10,0,9,-90
43,37,19,19,23,17,11,86
-16,-25,-4,14,59,20,-13,-20
-3,-3,-22,-34,-72,-29,-27,-42
-2,11,6,-13,-49,-8,9,-5
-14,-21,-4,14,37,2,9,-6
-5,-9,-16,-26,-27,11,3,41
11,2,14,35,52,31,7,4
-17,-20,-13,-14,-28,-16,-11,-43
22,10,-2,6,21,10,33,80
7,6,19,15,19,-7,12,-18
-15,3,8,-5,-6,-2,-13,-65
20,14,12,11,6,1,1,76
0,5,1,22,70,24,-6,-49
-24,-35,-41,-71,-101,-31,-46,-27
11,10,15,13,26,-3,26,27
-10,-11,2,10,42,11,-5,-29
-4,10,-14,-20,-26,-22,-36,-15
13,9,11,24,32,19,26,-7
6,7,4,6,9,6,11,82
-11,-3,-3,3,23,6,-26,-52
12,-5,9,-9,-32,-15,-7,-18
-5,-4,-3,9,33,4,4,32
-6,1,2,2,8,-3,5,-19
-4,1,-1,1,2,25,-13,8
9,3,-5,-14,-46,-21,-44,56
-1,2,9,14,29,27,85,-15
5,-3,-2,12,27,0,-6,10
-11,-17,-13,-22,-46,-37,-30,-16
-6,7,0,-6,-43,-5,28,-68
-9,-15,2,-7,-21,-29,-37,15
19,13,0,1,2,2,3,56
-2,16,-3,-6,-22,10,1,-50
-3,-11,0,4,28,11,-22,12
8,18,9,16,1,2,28,-9
-5,-7,1,-9,-1,4,14,36
-3,-11,-2,-2,-20,-7,0,-41
6,18,5,15,32,8,37,-22
-28,-32,-18,-7,21,4,-31,-24
3,3,8,-8,-48,-26,-40,33
25,17,10,-10,-49,-33,26,53
-30,-22,-16,9,50,24,-17,-85
6,-1,9,-8,-30,-5,24,3
2,6,-2,-1,-9,15,39,-21
-2,-7,-1,15,43,8,-4,69
20,-1,-2,-2,-6,11,61,43
-11,-3,-14,-6,-3,-14,-45,-6
4,10,4,4,2,-9,-9,15
2,-7,-4,-4,-16,10,1,-41
-15,-1,-9,-10,-24,-21,5,-35
9,-16,-4,-6,34,22,4,94
-12,-16,-4,12,16,4,-16,-40
-7,-1,-7,-11,-5,2,26,-44
-1,-9,0,-4,-36,-16,-39,11
7,25,11,25,43,13,8,-26
6,5,-8,-25,-31,-15,21,-47
-22,-7,1,4,51,13,-26,-49
23,2,5,-1,-39,-12,4,85
14,15,11,18,29,23,23,-9
-20,3,-14,-25,-56,-22,-31,-35
25,6,6,23,59,33,2,15
-28,-26,-17,-40,-77,-54,1,-26
-10,23,3,6,27,11,-21,-99
17,1,10,17,26,9,27,50
-20,-6,-8,-10,3,5,-23,-88
0,-18,-5,-4,-22,-8,5,37
18,11,2,-1,-9,-5,-5,-6
-18,2,5,5,44,0,4,-18
9,-6,-5,-11,-30,-16,4,28
-25,-8,-1,0,25,35,2,-73
15,7,1,-6,-44,-16,28,50
-3,7,-2,26,67,8,-49,-52
4,-27,-15,-33,-60,-21,48,92
3,-19,-4,5,14,17,-8,-9
-13,8,-9,-29,-76,-41,16,16
-2,1,4,9,7,-5,-34,-8
-6,5,-2,-1,-18,-11,1,-26
-12,3,0,3,26,-5,-9,-16
25,9,12,17,21,32,11,90
-5,-21,-8,-8,-22,-7,18,17
-9,4,-5,-15,-31,-11,30,-14
32,21,14,15,51,17,-8,39
-36,-19,-3,-13,-60,-30,-41,-82
-4,-10,-12,-8,0,12,10,-93
6,7,4,12,21,-3,-1,65
-10,0,1,-11,-35,-6,-4,-21
10,1,-1,12,24,-1,-6,-14
-21,-20,-13,-30,-43,-19,-33,3
-2,13,13,21,41,16,-4,-34
14,-11,-2,14,32,3,-3,-7
-21,17,-11,-9,-15,-9,0,-45
42,27,10,-2,12,20,6,102
-5,-17,-4,16,14,-29,15,17
-14,10,4,-12,-15,16,-5,-30
-4,-27,-6,4,43,23,-10,1
6,6,-2,-11,-40,-22,-31,36
21,5,-6,4,24,1,40,74
-6,-2,-4,4,31,13,-14,4
10,5,2,-14,-54,-28,9,12
-15,-26,-5,12,34,25,6,-68
2,6,9,-9,-44,-17,-45,62
-7,2,2,9,10,1,6,1
18,0,-1,-4,1,8,-3,16
-16,0,4,5,11,4,10,57
-12,-14,-8,-4,-7,-19,-34,-103
12,3,-6,-21,-73,-20,23,7
-3,-2,1,9,42,24,21,22
-7,-15,-11,0,18,-8,-1,-8
-7,6,5,1,-37,-10,-16,-55
0,8,-8,-16,5,-11,-10,-13
-7,15,2,3,5,-15,-16,-88
4,7,2,-17,-44,5,5,-26
-1,-6,1,14,46,28,-7,-30
-3,12,3,11,44,31,-41,-39
-14,-38,-11,-25,-91,-73,-19,71
8,9,8,13,27,3,25,-20
5,13,-1,2,9,16,-17,-7
-9,-7,9,10,-1,7,24,38
-3,5,4,14,51,27,12,-15
-4,-1,-11,-10,-13,-2,-24,-31
-7,-11,-3,-14,-22,2,-9,64
9,-1,-1,-6,-35,-30,2,6
10,-4,14,19,64,49,16,10
-3,24,2,-3,-14,-21,59,49
17,17,-4,-5,5,-10,-12,-83
-14,-30,-11,10,34,10,-14,-14
12,8,6,0,10,-6,-25,18
-16,-8,-2,-13,-31,6,-18,-76
-17,-6,-2,15,38,26,25,73
8,6,-3,-17,-24,-43,-22,27
4,-5,-4,3,-7,16,11,3
-10,-12,1,12,39,19,29,22
-6,-4,-3,-6,-24,-27,-33,-56
8,11,6,12,33,16,6,47
-19,-7,-14,-10,-7,-14,-1,-69
-14,-27,2,0,-6,-4,6,1
-8,-4,-7,-8,-19,-15,-9,-18
-2,1,3,2,10,29,-11,-52
12,12,-1,7,28,6,17,-2
36,1,-9,-16,-41,-34,6,127
8,0,2,1,14,11,15,4
-23,-9,-3,5,19,10,13,-46
-21,4,11,4,-3,-20,7,-81
13,5,-1,-1,-13,16,12,55
8,-4,4,0,-6,-11,-1,5
-4,8,-8,-16,-23,5,-9,-5
-4,-5,-3,-10,-34,-26,-36,3
3,5,2,14,41,20,-23,-24
-16,-10,-1,7,52,28,43,-14
2,12,-1,-21,-85,-49,14,-7
0,-24,-10,0,25,12,-5,121
25,5,12,21,38,10,2,-47
-11,14,0,-24,-65,-10,-20,-26
-9,1,1,12,36,9,15,-9
0,-5,2,-17,-33,-25,-23,32
-1,-10,-5,5,13,4,8,-37
2,-6,-2,6,11,18,-17,-11
-7,-20,-5,-6,-21,-21,-11,21
26,31,9,7,11,8,26,-28
-23,-8,-8,-14,-13,-5,-53,-59
3,-17,-1,-4,-23,-6,18,17
4,7,5,17,56,34,9,38
-10,1,-11,-19,-68,-41,-13,-62
16,13,12,18,47,8,32,79
-15,10,-9,-27,-64,-19,-81,-38
8,-11,3,13,20,0,30,19
3,8,7,3,20,18,-2,-13
-8,-12,2,13,26,8,9,-17
-8,-3,-16,-17,-21,-17,-12,5
5,4,2,-4,1,-8,0,24
16,10,7,7,16,29,27,22
-26,3,3,-9,-24,-31,-31,-67
-7,3,10,23,62,34,31,-22
17,0,2,2,0,2,-17,21
-12,-15,-7,6,26,7,-18,27
-13,-14,-22,-34,-58,-23,36,-38
17,12,6,10,37,9,31,30
-4,2,-6,-6,-20,-20,-15,-39
-1,-6,-6,-4,-9,7,-12,-46
-8,1,1,6,12,11,-13,42
-1,-10,1,3,-4,-14,-12,5
-11,-6,-10,-7,-8,1,-8,-29
-10,-10,2,18,27,11,-16,-26
22,27,-4,-37,-74,-21,38,57
3,-7,2,5,8,-5,16,-4
-16,-18,-2,12,12,8,-24,5
-13,-5,0,9,26,4,-9,-6
4,-6,-11,-21,-36,-18,0,29
4,11,11,9,14,9,13,45
28,27,9,11,34,21,24,11
-11,-9,10,9,-7,-13,-5,-65
-17,-6,-10,-14,6,12,-22,-39
12,-3,-2,-3,-25,-11,-1,59
-7,8,-3,3,20,8,-18,-26
25,19,-1,6,53,13,9,-11
-15,-16,-8,-12,-42,-8,24,30
-13,-6,3,-1,9,-16,-29,-16
3,-23,-6,-14,-30,-1,22,40
-3,5,-11,-11,-4,-2,-22,-7
3,3,3,26,35,-2,-21,-37
-20,-15,-3,-23,-28,-4,6,-28
3,9,0,-1,-1,-2,5,14
5,-5,-7,-7,-9,-15,-18,-34
-8,-17,-4,1,12,11,-14,-5
37,46,0,8,3,-5,-5,-37
-24,-8,2,-15,-32,-21,28,17
-22,-17,-8,-11,-6,13,5,10
3,-9,5,18,38,8,-8,-49
-2,-14,-7,-12,-20,-14,23,14
-6,-7,-7,-7,5,8,-12,-8
10,3,-2,-4,-10,-6,-5,41
2,8,18,21,43,21,-6,-9
-13,-3,-10,-16,-47,-28,20,-17
-13,-12,-6,-2,5,11,16,22
8,11,10,-1,-15,-6,-6,30
37,33,15,26,36,26,14,15
-47,-50,-19,-13,12,-4,-34,-103
24,46,10,-3,-11,-16,-24,-37
22,8,4,2,-9,6,42,56
-22,-24,-3,0,2,7,-22,11
13,9,16,5,-16,-13,-22,-10
-9,-7,-5,9,21,-8,18,-56
-27,-9,1,-16,-44,-16,-54,-10
33,22,5,12,7,18,31,21
-1,-5,-3,5,30,6,-16,35
-3,0,-2,10,17,12,2,-79
-3,-10,-10,-23,-51,-18,18,-4
-15,2,-4,-5,-11,-19,-21,-32
0,-25,15,25,58,45,19,77
32,25,2,-6,-36,-24,-2,44
-29,-11,-15,-14,-30,-12,-10,-54
-2,0,-6,-4,-9,-13,-7,-10
9,19,6,-9,-42,-23,-14,-18
-13,-22,-5,-6,15,2,-6,-29
-1,-4,0,7,33,14,15,13
18,12,1,-2,-6,-4,34,86
-19,0,-13,-7,13,9,-47,-99
12,-11,-4,5,0,0,-9,40
1,5,10,-6,13,14,19,60
1,1,7,5,-27,-26,-12,-17
-1,-8,-5,3,10,12,10,2
-37,-34,-12,-25,-52,-30,-35,-80
13,24,4,11,34,9,4,43
-6,-5,-2,-5,3,-9,13,-4
10,6,1,4,-18,5,23,11
6,-9,0,-8,-12,8,6,71
7,9,-8,0,8,10,23,4
-27,-12,-10,-3,3,-1,-47,-123
42,8,4,2,18,2,59,84
-17,-12,3,-2,-15,-14,-30,-25
-9,-17,2,1,-20,-13,14,-19
-9,-2,-8,-3,-9,-32,-16,6
30,17,3,3,21,47,14,-1
-17,-38,-5,1,22,0,-23,6
-10,27,-9,-13,-24,-9,6,-44
15,-22,0,8,36,21,21,63
-25,0,-3,-2,-6,-12,9,-49
4,-2,4,0,-13,1,-2,47
-8,-6,1,3,-9,-1,-23,-45
-6,2,-5,2,18,11,-19,-28
22,9,-8,1,18,-24,-9,32
-28,-33,0,-24,-74,-6,25,-78
14,5,-3,11,32,12,-29,36
7,30,-2,-7,-14,-17,34,32
-18,-23,1,-5,9,13,-32,-12
-6,6,-5,16,49,5,15,-18
-4,-9,-9,-6,-23,-13,6,-12
10,11,-3,-18,-34,2,-27,13
-17,-1,-12,6,2,2,0,3
20,-14,3,17,59,8,30,72
-20,-22,-6,-8,-34,-15,32,-6
-8,18,10,-3,44,36,-37,-37
32,30,8,11,-19,-17,13,58
5,2,-10,-17,-9,-11,-7,17
-10,6,6,15,27,-1,-24,-88
0,-44,-6,-5,-11,12,40,78
-12,-5,3,-2,-5,3,2,-15
3,24,3,7,-6,-8,-6,-32
16,4,0,-3,45,3,-10,-4
-27,-12,-9,-17,-78,-25,-1,-38
1,-23,0,-8,-17,-4,9,35
19,7,8,19,45,23,-14,-12
